# E [MeV]   μ/ρ [cm2/g] μen/ρ [cm2/g]
3.10900e-05  1.588e+05  1.588e+05
3.32352e-05  1.459e+05  1.459e+05
3.55285e-05  1.337e+05  1.337e+05
3.79799e-05  1.220e+05  1.220e+05
4.06005e-05  1.110e+05  1.110e+05
4.34020e-05  1.006e+05  1.006e+05
4.63967e-05  9.083e+04  9.083e+04
4.95981e-05  8.172e+04  8.172e+04
5.30204e-05  7.328e+04  7.328e+04
5.66788e-05  6.549e+04  6.549e+04
6.05896e-05  5.835e+04  5.835e+04
6.47703e-05  5.183e+04  5.183e+04
6.92394e-05  4.592e+04  4.592e+04
7.40169e-05  4.058e+04  4.058e+04
7.91241e-05  3.578e+04  3.578e+04
8.45837e-05  3.146e+04  3.146e+04
9.04199e-05  2.760e+04  2.760e+04
9.66589e-05  2.415e+04  2.415e+04
1.03328e-04  2.109e+04  2.109e+04
1.10458e-04  1.838e+04  1.838e+04
1.18080e-04  1.600e+04  1.600e+04
1.26227e-04  1.385e+04  1.385e+04
1.34937e-04  1.196e+04  1.196e+04
1.44248e-04  1.031e+04  1.031e+04
1.54200e-04  8.880e+03  8.880e+03
1.64840e-04  7.642e+03  7.642e+03
1.76214e-04  6.569e+03  6.569e+03
1.88373e-04  5.642e+03  5.642e+03
2.01371e-04  4.842e+03  4.842e+03
2.15265e-04  4.153e+03  4.153e+03
2.30119e-04  3.560e+03  3.560e+03
2.45997e-04  3.049e+03  3.049e+03
2.62971e-04  2.610e+03  2.610e+03
2.78124e-04  2.290e+03  2.290e+03
2.81116e-04  2.234e+03  2.234e+03
2.82381e-04  2.210e+03  2.210e+03
2.83516e-04  2.190e+03  2.190e+03
2.85219e-04  4.838e+04  4.838e+04
2.89476e-04  4.693e+04  4.693e+04
3.00513e-04  4.346e+04  4.346e+04
3.21248e-04  3.787e+04  3.787e+04
3.43414e-04  3.279e+04  3.279e+04
3.67110e-04  2.821e+04  2.821e+04
3.92441e-04  2.414e+04  2.414e+04
4.19519e-04  2.056e+04  2.056e+04
4.48466e-04  1.744e+04  1.744e+04
4.79410e-04  1.476e+04  1.476e+04
5.12489e-04  1.245e+04  1.245e+04
5.47851e-04  1.048e+04  1.048e+04
5.85653e-04  8.809e+03  8.809e+03
6.26062e-04  7.390e+03  7.390e+03
6.69260e-04  6.190e+03  6.190e+03
7.15439e-04  5.178e+03  5.178e+03
7.64805e-04  4.325e+03  4.325e+03
8.17576e-04  3.608e+03  3.608e+03
8.73989e-04  3.007e+03  3.007e+03
9.34294e-04  2.503e+03  2.503e+03
9.98761e-04  2.081e+03  2.081e+03
1.06767e-03  1.727e+03  1.727e+03
1.14134e-03  1.431e+03  1.431e+03
1.22009e-03  1.177e+03  1.177e+03
1.30428e-03  9.685e+02  9.685e+02
1.39428e-03  7.969e+02  7.969e+02
1.49048e-03  6.557e+02  6.557e+02
1.59332e-03  5.395e+02  5.395e+02
1.70326e-03  4.440e+02  4.440e+02
1.82079e-03  3.654e+02  3.654e+02
1.94643e-03  3.007e+02  3.007e+02

1.00000E-03  2.211E+03  2.209E+03
1.50000E-03  7.002E+02  6.990E+02
2.00000E-03  3.026E+02  3.016E+02
3.00000E-03  9.033E+01  8.963E+01
4.00000E-03  3.778E+01  3.723E+01
5.00000E-03  1.912E+01  1.866E+01
6.00000E-03  1.095E+01  1.054E+01
8.00000E-03  4.576E+00  4.242E+00
1.00000E-02  2.373E+00  2.078E+00
1.50000E-02  8.071E-01  5.627E-01
2.00000E-02  4.420E-01  2.238E-01
3.00000E-02  2.562E-01  6.614E-02
4.00000E-02  2.076E-01  3.343E-02
5.00000E-02  1.871E-01  2.397E-02
6.00000E-02  1.753E-01  2.098E-02
8.00000E-02  1.610E-01  2.037E-02
1.00000E-01  1.514E-01  2.147E-02
1.50000E-01  1.347E-01  2.449E-02
2.00000E-01  1.229E-01  2.655E-02
3.00000E-01  1.066E-01  2.870E-02
4.00000E-01  9.546E-02  2.950E-02
5.00000E-01  8.715E-02  2.969E-02
6.00000E-01  8.058E-02  2.956E-02
8.00000E-01  7.076E-02  2.885E-02
1.00000E+00  6.361E-02  2.792E-02
1.25000E+00  5.690E-02  2.669E-02
1.50000E+00  5.179E-02  2.551E-02
2.00000E+00  4.442E-02  2.345E-02
3.00000E+00  3.562E-02  2.048E-02
4.00000E+00  3.047E-02  1.849E-02
5.00000E+00  2.708E-02  1.710E-02
6.00000E+00  2.469E-02  1.607E-02
8.00000E+00  2.154E-02  1.468E-02
1.00000E+01  1.959E-02  1.380E-02
1.50000E+01  1.698E-02  1.258E-02
2.00000E+01  1.575E-02  1.198E-02