 Incident particle is a   Muon with M =   105.65839 MeV
 Index =  297:  carbon (gem diamond)
     Absorber with Z =   6,  A = 12.0107(8), density = 3.520 (revised)
 Sternheimer coef:  a     k=m_s   x_0    x_1    I[eV]   Cbar  delta0
                 0.2614  2.8697 -0.1135  2.2458   78.0  2.4271 0.12
 (Restricted energy loss for Tcut = 0.05 MeV
 Table written with (1X, 1P9E10.3,0PF8.4,f8.5,1pE10.3)          post-Born included in pair prod
 *** Results below 10 MeV are not dependable ***
      T         p     Ionization  brems     pair     photonuc  Radloss    dE/dx   CSDA Range  delta   beta   dE/dx_R
    [MeV]    [MeV/c]  -----------------------[MeV cm^2/g]------------------------  [g/cm^2]                [MeV cm^2/g]
  1.200E+00 1.597E+01 3.866E+01 0.000E+00 0.000E+00 5.026E-05 5.026E-05 3.866E+01 6.901E-03  0.0046 0.14944 3.866E+01
  1.400E+00 1.726E+01 3.415E+01 0.000E+00 0.000E+00 5.035E-05 5.035E-05 3.415E+01 1.242E-02  0.0054 0.16119 3.415E+01
  1.700E+00 1.903E+01 2.920E+01 0.000E+00 0.000E+00 5.049E-05 5.049E-05 2.920E+01 2.195E-02  0.0066 0.17725 2.920E+01
  2.000E+00 2.066E+01 2.560E+01 0.000E+00 0.000E+00 5.063E-05 5.063E-05 2.560E+01 3.295E-02  0.0077 0.19186 2.560E+01
  2.500E+00 2.312E+01 2.137E+01 0.000E+00 0.000E+00 5.087E-05 5.087E-05 2.137E+01 5.442E-02  0.0097 0.21376 2.137E+01
  3.000E+00 2.536E+01 1.843E+01 0.000E+00 0.000E+00 5.110E-05 5.110E-05 1.843E+01 7.970E-02  0.0117 0.23336 1.823E+01
  3.500E+00 2.742E+01 1.627E+01 0.000E+00 0.000E+00 5.134E-05 5.134E-05 1.627E+01 1.086E-01  0.0136 0.25120 1.592E+01
  4.000E+00 2.935E+01 1.461E+01 0.000E+00 0.000E+00 5.157E-05 5.157E-05 1.461E+01 1.411E-01  0.0156 0.26763 1.416E+01
  4.500E+00 3.116E+01 1.329E+01 0.000E+00 0.000E+00 5.181E-05 5.181E-05 1.329E+01 1.770E-01  0.0176 0.28290 1.278E+01
  5.000E+00 3.289E+01 1.222E+01 0.000E+00 0.000E+00 5.204E-05 5.204E-05 1.222E+01 2.163E-01  0.0196 0.29720 1.167E+01
  5.500E+00 3.453E+01 1.132E+01 0.000E+00 0.000E+00 5.228E-05 5.228E-05 1.132E+01 2.589E-01  0.0216 0.31066 1.075E+01
  6.000E+00 3.611E+01 1.057E+01 0.000E+00 0.000E+00 5.251E-05 5.251E-05 1.057E+01 3.046E-01  0.0236 0.32339 9.981E+00
  7.000E+00 3.909E+01 9.359E+00 0.000E+00 0.000E+00 5.298E-05 5.298E-05 9.359E+00 4.054E-01  0.0277 0.34700 8.759E+00
  8.000E+00 4.189E+01 8.435E+00 0.000E+00 0.000E+00 5.345E-05 5.345E-05 8.435E+00 5.181E-01  0.0318 0.36854 7.834E+00
  9.000E+00 4.453E+01 7.703E+00 0.000E+00 0.000E+00 5.392E-05 5.392E-05 7.703E+00 6.424E-01  0.0360 0.38836 7.108E+00
  1.000E+01 4.704E+01 7.109E+00 0.000E+00 0.000E+00 5.439E-05 5.439E-05 7.109E+00 7.776E-01  0.0401 0.40675 6.523E+00
  1.200E+01 5.177E+01 6.202E+00 0.000E+00 0.000E+00 5.533E-05 5.533E-05 6.203E+00 1.080E+00  0.0486 0.43998 5.637E+00
  1.400E+01 5.616E+01 5.542E+00 0.000E+00 0.000E+00 5.628E-05 5.628E-05 5.542E+00 1.422E+00  0.0572 0.46937 4.999E+00
  1.700E+01 6.230E+01 4.830E+00 0.000E+00 0.000E+00 5.769E-05 5.769E-05 4.830E+00 2.003E+00  0.0704 0.50792 4.316E+00
  2.000E+01 6.802E+01 4.323E+00 0.000E+00 0.000E+00 5.910E-05 5.910E-05 4.323E+00 2.662E+00  0.0839 0.54129 3.834E+00
  2.500E+01 7.686E+01 3.740E+00 0.000E+00 0.000E+00 6.145E-05 6.145E-05 3.740E+00 3.910E+00  0.1071 0.58827 3.284E+00
  3.000E+01 8.509E+01 3.345E+00 0.000E+00 0.000E+00 6.380E-05 6.380E-05 3.345E+00 5.328E+00  0.1374 0.62720 2.914E+00
  3.500E+01 9.285E+01 3.060E+00 0.000E+00 0.000E+00 6.615E-05 6.615E-05 3.060E+00 6.894E+00  0.1747 0.66011 2.648E+00
  4.000E+01 1.003E+02 2.846E+00 0.000E+00 0.000E+00 6.850E-05 6.850E-05 2.846E+00 8.590E+00  0.2110 0.68834 2.449E+00
  4.500E+01 1.074E+02 2.679E+00 0.000E+00 0.000E+00 7.085E-05 7.085E-05 2.679E+00 1.040E+01  0.2462 0.71286 2.294E+00
  5.000E+01 1.143E+02 2.546E+00 3.987E-07 0.000E+00 7.321E-05 7.360E-05 2.546E+00 1.232E+01  0.2802 0.73434 2.170E+00
  5.500E+01 1.210E+02 2.438E+00 8.883E-07 0.000E+00 7.556E-05 7.645E-05 2.438E+00 1.433E+01  0.3133 0.75332 2.070E+00
  6.000E+01 1.276E+02 2.349E+00 1.392E-06 0.000E+00 7.791E-05 7.930E-05 2.349E+00 1.642E+01  0.3453 0.77019 1.986E+00
  7.000E+01 1.403E+02 2.211E+00 2.443E-06 0.000E+00 8.261E-05 8.505E-05 2.211E+00 2.081E+01  0.4067 0.79887 1.857E+00
  8.000E+01 1.527E+02 2.110E+00 3.547E-06 0.000E+00 8.732E-05 9.086E-05 2.110E+00 2.545E+01  0.4649 0.82227 1.761E+00
  9.000E+01 1.647E+02 2.034E+00 4.701E-06 0.000E+00 9.202E-05 9.672E-05 2.034E+00 3.028E+01  0.5202 0.84166 1.688E+00
  1.000E+02 1.764E+02 1.975E+00 5.904E-06 0.000E+00 9.672E-05 1.026E-04 1.975E+00 3.527E+01  0.5731 0.85794 1.630E+00
  1.200E+02 1.994E+02 1.891E+00 8.443E-06 0.000E+00 1.061E-04 1.146E-04 1.891E+00 4.563E+01  0.6726 0.88361 1.547E+00
  1.400E+02 2.218E+02 1.836E+00 1.115E-05 0.000E+00 1.155E-04 1.267E-04 1.837E+00 5.638E+01  0.7649 0.90278 1.490E+00
  1.700E+02 2.546E+02 1.786E+00 1.549E-05 0.000E+00 1.296E-04 1.451E-04 1.786E+00 7.296E+01  0.8925 0.92363 1.434E+00
  2.000E+02 2.868E+02 1.757E+00 2.014E-05 0.000E+00 1.438E-04 1.639E-04 1.757E+00 8.991E+01  1.0097 0.93835 1.398E+00
  2.500E+02 3.396E+02 1.733E+00 2.849E-05 0.000E+00 1.673E-04 1.958E-04 1.733E+00 1.186E+02  1.1865 0.95485 1.361E+00
  3.000E+02 3.917E+02 1.725E+00 3.751E-05 0.000E+00 1.908E-04 2.283E-04 1.726E+00 1.475E+02  1.3454 0.96548 1.340E+00
  3.182E+02 4.105E+02 1.725E+00 4.710E-05 0.000E+00 2.143E-04 2.614E-04 1.726E+00  Minimum ionization
  3.500E+02 4.432E+02 1.726E+00 4.710E-05 0.000E+00 2.143E-04 2.614E-04 1.726E+00 1.765E+02  1.4900 0.97274 1.327E+00
  4.000E+02 4.945E+02 1.730E+00 5.721E-05 0.000E+00 2.378E-04 2.950E-04 1.730E+00 2.054E+02  1.6231 0.97793 1.319E+00
  4.500E+02 5.455E+02 1.737E+00 6.779E-05 0.000E+00 2.613E-04 3.291E-04 1.737E+00 2.343E+02  1.7465 0.98176 1.314E+00
  5.000E+02 5.964E+02 1.744E+00 7.878E-05 0.000E+00 2.848E-04 3.636E-04 1.745E+00 2.630E+02  1.8617 0.98467 1.311E+00
  5.500E+02 6.471E+02 1.753E+00 9.017E-05 0.000E+00 3.084E-04 3.985E-04 1.753E+00 2.916E+02  1.9699 0.98693 1.309E+00
  6.000E+02 6.977E+02 1.761E+00 1.019E-04 0.000E+00 3.319E-04 4.338E-04 1.762E+00 3.201E+02  2.0718 0.98873 1.308E+00
  7.000E+02 7.987E+02 1.778E+00 1.264E-04 0.000E+00 3.789E-04 5.053E-04 1.779E+00 3.765E+02  2.2600 0.99136 1.307E+00
  8.000E+02 8.995E+02 1.795E+00 1.520E-04 0.000E+00 4.259E-04 5.779E-04 1.795E+00 4.325E+02  2.4305 0.99317 1.307E+00
  9.000E+02 1.000E+03 1.810E+00 1.787E-04 0.000E+00 4.730E-04 6.516E-04 1.811E+00 4.880E+02  2.5868 0.99447 1.308E+00
  1.000E+03 1.101E+03 1.825E+00 2.063E-04 5.414E-06 5.200E-04 7.317E-04 1.825E+00 5.430E+02  2.7310 0.99542 1.309E+00
  1.200E+03 1.301E+03 1.850E+00 2.640E-04 4.302E-05 6.141E-04 9.210E-04 1.851E+00 6.517E+02  2.9904 0.99672 1.311E+00
  1.400E+03 1.502E+03 1.873E+00 3.245E-04 8.582E-05 7.081E-04 1.118E-03 1.874E+00 7.591E+02  3.2189 0.99753 1.313E+00
  1.700E+03 1.803E+03 1.902E+00 4.200E-04 1.583E-04 8.492E-04 1.427E-03 1.904E+00 9.179E+02  3.5183 0.99829 1.316E+00
  2.000E+03 2.103E+03 1.927E+00 5.202E-04 2.392E-04 9.935E-04 1.753E-03 1.929E+00 1.074E+03  3.7782 0.99874 1.319E+00
  2.500E+03 2.604E+03 1.961E+00 6.958E-04 3.896E-04 1.246E-03 2.331E-03 1.963E+00 1.331E+03  4.1480 0.99918 1.322E+00
  3.000E+03 3.104E+03 1.988E+00 8.805E-04 5.564E-04 1.501E-03 2.937E-03 1.991E+00 1.584E+03  4.4604 0.99942 1.324E+00
  3.500E+03 3.604E+03 2.011E+00 1.073E-03 7.368E-04 1.758E-03 3.567E-03 2.015E+00 1.834E+03  4.7311 0.99957 1.326E+00
  4.000E+03 4.104E+03 2.031E+00 1.272E-03 9.289E-04 2.017E-03 4.218E-03 2.035E+00 2.081E+03  4.9702 0.99967 1.327E+00
  4.500E+03 4.604E+03 2.048E+00 1.476E-03 1.131E-03 2.278E-03 4.886E-03 2.053E+00 2.325E+03  5.1843 0.99974 1.328E+00
  5.000E+03 5.105E+03 2.063E+00 1.687E-03 1.346E-03 2.536E-03 5.568E-03 2.068E+00 2.568E+03  5.3782 0.99979 1.329E+00
  5.500E+03 5.605E+03 2.076E+00 1.906E-03 1.578E-03 2.773E-03 6.257E-03 2.083E+00 2.809E+03  5.5554 0.99982 1.330E+00
  6.000E+03 6.105E+03 2.089E+00 2.129E-03 1.820E-03 3.009E-03 6.958E-03 2.096E+00 3.048E+03  5.7187 0.99985 1.330E+00
  7.000E+03 7.105E+03 2.110E+00 2.589E-03 2.326E-03 3.479E-03 8.393E-03 2.118E+00 3.523E+03  6.0109 0.99989 1.331E+00
  8.000E+03 8.105E+03 2.128E+00 3.063E-03 2.860E-03 3.945E-03 9.868E-03 2.138E+00 3.993E+03  6.2670 0.99992 1.331E+00
  9.000E+03 9.105E+03 2.144E+00 3.549E-03 3.417E-03 4.409E-03 1.138E-02 2.155E+00 4.458E+03  6.4947 0.99993 1.332E+00
  1.000E+04 1.011E+04 2.158E+00 4.048E-03 3.998E-03 4.870E-03 1.292E-02 2.171E+00 4.921E+03  6.6998 0.99995 1.332E+00
  1.200E+04 1.211E+04 2.181E+00 5.086E-03 5.252E-03 5.763E-03 1.610E-02 2.197E+00 5.836E+03  7.0574 0.99996 1.332E+00
  1.400E+04 1.411E+04 2.201E+00 6.160E-03 6.575E-03 6.646E-03 1.938E-02 2.220E+00 6.742E+03  7.3617 0.99997 1.332E+00
  1.700E+04 1.711E+04 2.225E+00 7.828E-03 8.672E-03 7.954E-03 2.445E-02 2.249E+00 8.084E+03  7.7468 0.99998 1.332E+00
  2.000E+04 2.011E+04 2.245E+00 9.554E-03 1.088E-02 9.246E-03 2.968E-02 2.274E+00 9.410E+03  8.0699 0.99999 1.332E+00
  2.500E+04 2.511E+04 2.271E+00 1.255E-02 1.484E-02 1.140E-02 3.879E-02 2.310E+00 1.159E+04  8.5141 0.99999 1.332E+00
  3.000E+04 3.011E+04 2.292E+00 1.567E-02 1.902E-02 1.352E-02 4.821E-02 2.341E+00 1.374E+04  8.8774 0.99999 1.332E+00
  3.500E+04 3.511E+04 2.310E+00 1.887E-02 2.339E-02 1.563E-02 5.790E-02 2.368E+00 1.586E+04  9.1847 1.00000 1.332E+00
  4.000E+04 4.011E+04 2.325E+00 2.216E-02 2.792E-02 1.771E-02 6.780E-02 2.393E+00 1.797E+04  9.4510 1.00000 1.332E+00
  4.500E+04 4.511E+04 2.338E+00 2.551E-02 3.260E-02 1.978E-02 7.789E-02 2.416E+00 2.004E+04  9.6860 1.00000 1.332E+00
  5.000E+04 5.011E+04 2.350E+00 2.893E-02 3.739E-02 2.184E-02 8.816E-02 2.438E+00 2.210E+04  9.8962 1.00000 1.332E+00
  5.500E+04 5.511E+04 2.360E+00 3.241E-02 4.223E-02 2.393E-02 9.857E-02 2.459E+00 2.415E+04 10.0865 1.00000 1.332E+00
  6.000E+04 6.011E+04 2.370E+00 3.593E-02 4.716E-02 2.601E-02 1.091E-01 2.479E+00 2.617E+04 10.2602 1.00000 1.332E+00
  7.000E+04 7.011E+04 2.386E+00 4.312E-02 5.729E-02 3.016E-02 1.306E-01 2.517E+00 3.017E+04 10.5680 1.00000 1.332E+00
  8.000E+04 8.011E+04 2.400E+00 5.046E-02 6.772E-02 3.428E-02 1.525E-01 2.553E+00 3.412E+04 10.8347 1.00000 1.332E+00
  9.000E+04 9.011E+04 2.413E+00 5.795E-02 7.841E-02 3.837E-02 1.747E-01 2.588E+00 3.801E+04 11.0699 1.00000 1.332E+00
  1.000E+05 1.001E+05 2.424E+00 6.556E-02 8.933E-02 4.245E-02 1.973E-01 2.621E+00 4.185E+04 11.2804 1.00000 1.332E+00
  1.200E+05 1.201E+05 2.443E+00 8.093E-02 1.115E-01 5.075E-02 2.431E-01 2.686E+00 4.939E+04 11.6447 1.00000 1.332E+00
  1.400E+05 1.401E+05 2.459E+00 9.666E-02 1.342E-01 5.902E-02 2.899E-01 2.749E+00 5.675E+04 11.9528 1.00000 1.332E+00
  1.700E+05 1.701E+05 2.479E+00 1.208E-01 1.694E-01 7.137E-02 3.616E-01 2.840E+00 6.748E+04 12.3408 1.00000 1.332E+00
  2.000E+05 2.001E+05 2.496E+00 1.455E-01 2.056E-01 8.368E-02 4.348E-01 2.930E+00 7.788E+04 12.6657 1.00000 1.332E+00
  2.500E+05 2.501E+05 2.518E+00 1.871E-01 2.655E-01 1.045E-01 5.571E-01 3.076E+00 9.453E+04 13.1117 1.00000 1.332E+00
  3.000E+05 3.001E+05 2.537E+00 2.296E-01 3.270E-01 1.254E-01 6.820E-01 3.219E+00 1.104E+05 13.4762 1.00000 1.332E+00
  3.500E+05 3.501E+05 2.553E+00 2.730E-01 3.897E-01 1.462E-01 8.089E-01 3.362E+00 1.256E+05 13.7844 1.00000 1.332E+00
  4.000E+05 4.001E+05 2.566E+00 3.170E-01 4.535E-01 1.670E-01 9.375E-01 3.504E+00 1.402E+05 14.0514 1.00000 1.332E+00
  4.500E+05 4.501E+05 2.579E+00 3.616E-01 5.183E-01 1.878E-01 1.068E+00 3.646E+00 1.542E+05 14.2869 1.00000 1.332E+00
  5.000E+05 5.001E+05 2.589E+00 4.067E-01 5.839E-01 2.086E-01 1.199E+00 3.789E+00 1.676E+05 14.4976 1.00000 1.332E+00
  5.500E+05 5.501E+05 2.599E+00 4.516E-01 6.488E-01 2.300E-01 1.330E+00 3.930E+00 1.806E+05 14.6882 1.00000 1.332E+00
  6.000E+05 6.001E+05 2.608E+00 4.969E-01 7.143E-01 2.515E-01 1.463E+00 4.071E+00 1.931E+05 14.8622 1.00000 1.332E+00
  7.000E+05 7.001E+05 2.624E+00 5.883E-01 8.468E-01 2.945E-01 1.730E+00 4.354E+00 2.168E+05 15.1704 1.00000 1.332E+00
  8.000E+05 8.001E+05 2.638E+00 6.809E-01 9.810E-01 3.376E-01 2.000E+00 4.637E+00 2.391E+05 15.4375 1.00000 1.332E+00
  9.000E+05 9.001E+05 2.650E+00 7.745E-01 1.117E+00 3.809E-01 2.272E+00 4.922E+00 2.600E+05 15.6730 1.00000 1.332E+00
  1.000E+06 1.000E+06 2.661E+00 8.690E-01 1.254E+00 4.242E-01 2.547E+00 5.209E+00 2.798E+05 15.8837 1.00000 1.332E+00
  1.044E+06 1.044E+06 2.666E+00 9.099E-01 1.313E+00 4.435E-01 2.666E+00 5.332E+00  Muon critical energy
  1.200E+06 1.200E+06 2.680E+00 1.057E+00 1.524E+00 5.127E-01 3.094E+00 5.774E+00 3.162E+05 16.2483 1.00000 1.332E+00
  1.400E+06 1.400E+06 2.697E+00 1.248E+00 1.797E+00 6.017E-01 3.647E+00 6.343E+00 3.492E+05 16.5566 1.00000 1.332E+00
  1.700E+06 1.700E+06 2.717E+00 1.537E+00 2.211E+00 7.362E-01 4.484E+00 7.202E+00 3.936E+05 16.9449 1.00000 1.332E+00
  2.000E+06 2.000E+06 2.735E+00 1.830E+00 2.630E+00 8.714E-01 5.331E+00 8.066E+00 4.330E+05 17.2699 1.00000 1.332E+00
  2.500E+06 2.500E+06 2.759E+00 2.316E+00 3.320E+00 1.102E+00 6.738E+00 9.496E+00 4.900E+05 17.7162 1.00000 1.332E+00
  3.000E+06 3.000E+06 2.778E+00 2.806E+00 4.016E+00 1.335E+00 8.158E+00 1.094E+01 5.390E+05 18.0808 1.00000 1.332E+00
  3.500E+06 3.500E+06 2.795E+00 3.301E+00 4.717E+00 1.571E+00 9.589E+00 1.238E+01 5.820E+05 18.3891 1.00000 1.332E+00
  4.000E+06 4.000E+06 2.810E+00 3.799E+00 5.422E+00 1.807E+00 1.103E+01 1.384E+01 6.202E+05 18.6561 1.00000 1.332E+00
  4.500E+06 4.500E+06 2.823E+00 4.301E+00 6.131E+00 2.046E+00 1.248E+01 1.530E+01 6.545E+05 18.8917 1.00000 1.332E+00
  5.000E+06 5.000E+06 2.835E+00 4.805E+00 6.844E+00 2.285E+00 1.393E+01 1.677E+01 6.857E+05 19.1024 1.00000 1.332E+00
  5.500E+06 5.500E+06 2.845E+00 5.304E+00 7.547E+00 2.530E+00 1.538E+01 1.823E+01 7.143E+05 19.2930 1.00000 1.332E+00
  6.000E+06 6.000E+06 2.855E+00 5.805E+00 8.253E+00 2.776E+00 1.683E+01 1.969E+01 7.407E+05 19.4670 1.00000 1.332E+00
  7.000E+06 7.000E+06 2.872E+00 6.810E+00 9.668E+00 3.272E+00 1.975E+01 2.262E+01 7.880E+05 19.7753 1.00000 1.332E+00
  8.000E+06 8.000E+06 2.887E+00 7.821E+00 1.109E+01 3.773E+00 2.268E+01 2.557E+01 8.296E+05 20.0424 1.00000 1.332E+00
  9.000E+06 9.000E+06 2.901E+00 8.836E+00 1.251E+01 4.277E+00 2.563E+01 2.853E+01 8.666E+05 20.2780 1.00000 1.332E+00
  1.000E+07 1.000E+07 2.913E+00 9.855E+00 1.394E+01 4.785E+00 2.858E+01 3.150E+01 9.000E+05 20.4887 1.00000 1.332E+00
  1.200E+07 1.200E+07 2.934E+00 1.188E+01 1.678E+01 5.822E+00 3.448E+01 3.742E+01 9.582E+05 20.8533 1.00000 1.332E+00
  1.400E+07 1.400E+07 2.952E+00 1.391E+01 1.963E+01 6.871E+00 4.041E+01 4.336E+01 1.008E+06 21.1616 1.00000 1.332E+00
  1.700E+07 1.700E+07 2.974E+00 1.698E+01 2.391E+01 8.464E+00 4.935E+01 5.233E+01 1.071E+06 21.5499 1.00000 1.332E+00
  2.000E+07 2.000E+07 2.994E+00 2.005E+01 2.821E+01 1.008E+01 5.833E+01 6.133E+01 1.124E+06 21.8750 1.00000 1.332E+00
  2.500E+07 2.500E+07 3.020E+00 2.515E+01 3.533E+01 1.284E+01 7.333E+01 7.635E+01 1.196E+06 22.3212 1.00000 1.332E+00
  3.000E+07 3.000E+07 3.042E+00 3.027E+01 4.248E+01 1.564E+01 8.839E+01 9.143E+01 1.256E+06 22.6859 1.00000 1.332E+00
  3.500E+07 3.500E+07 3.061E+00 3.541E+01 4.963E+01 1.848E+01 1.035E+02 1.066E+02 1.307E+06 22.9942 1.00000 1.332E+00
  4.000E+07 4.000E+07 3.077E+00 4.055E+01 5.680E+01 2.135E+01 1.187E+02 1.218E+02 1.351E+06 23.2612 1.00000 1.332E+00
  4.500E+07 4.500E+07 3.091E+00 4.570E+01 6.397E+01 2.425E+01 1.339E+02 1.370E+02 1.389E+06 23.4968 1.00000 1.332E+00
  5.000E+07 5.000E+07 3.104E+00 5.087E+01 7.115E+01 2.717E+01 1.492E+02 1.523E+02 1.424E+06 23.7075 1.00000 1.332E+00
  5.500E+07 5.500E+07 3.116E+00 5.600E+01 7.830E+01 3.014E+01 1.644E+02 1.676E+02 1.455E+06 23.8982 1.00000 1.332E+00
  6.000E+07 6.000E+07 3.127E+00 6.114E+01 8.546E+01 3.314E+01 1.797E+02 1.829E+02 1.484E+06 24.0722 1.00000 1.332E+00
  7.000E+07 7.000E+07 3.146E+00 7.142E+01 9.979E+01 3.919E+01 2.104E+02 2.135E+02 1.534E+06 24.3805 1.00000 1.332E+00
  8.000E+07 8.000E+07 3.163E+00 8.172E+01 1.141E+02 4.532E+01 2.412E+02 2.443E+02 1.578E+06 24.6475 1.00000 1.332E+00
  9.000E+07 9.000E+07 3.178E+00 9.203E+01 1.285E+02 5.150E+01 2.720E+02 2.752E+02 1.617E+06 24.8831 1.00000 1.332E+00
  1.000E+08 1.000E+08 3.191E+00 1.024E+02 1.428E+02 5.774E+01 3.029E+02 3.061E+02 1.651E+06 25.0938 1.00000 1.332E+00
  1.200E+08 1.200E+08 3.215E+00 1.228E+02 1.714E+02 6.929E+01 3.635E+02 3.667E+02 1.711E+06 25.4585 1.00000 1.332E+00
  1.400E+08 1.400E+08 3.235E+00 1.433E+02 1.999E+02 8.084E+01 4.241E+02 4.273E+02 1.761E+06 25.7668 1.00000 1.332E+00
  1.700E+08 1.700E+08 3.260E+00 1.740E+02 2.428E+02 9.816E+01 5.149E+02 5.182E+02 1.825E+06 26.1551 1.00000 1.332E+00
  2.000E+08 2.000E+08 3.281E+00 2.047E+02 2.856E+02 1.155E+02 6.058E+02 6.091E+02 1.878E+06 26.4801 1.00000 1.332E+00
  2.500E+08 2.500E+08 3.311E+00 2.559E+02 3.571E+02 1.444E+02 7.573E+02 7.606E+02 1.952E+06 26.9264 1.00000 1.332E+00
  3.000E+08 3.000E+08 3.335E+00 3.071E+02 4.285E+02 1.732E+02 9.087E+02 9.121E+02 2.011E+06 27.2910 1.00000 1.332E+00
  3.500E+08 3.500E+08 3.356E+00 3.582E+02 4.999E+02 2.021E+02 1.060E+03 1.064E+03 2.062E+06 27.5993 1.00000 1.332E+00
  4.000E+08 4.000E+08 3.374E+00 4.094E+02 5.713E+02 2.310E+02 1.212E+03 1.215E+03 2.106E+06 27.8664 1.00000 1.332E+00
  4.500E+08 4.500E+08 3.391E+00 4.606E+02 6.427E+02 2.598E+02 1.363E+03 1.366E+03 2.145E+06 28.1020 1.00000 1.332E+00
  5.000E+08 5.000E+08 3.405E+00 5.118E+02 7.141E+02 2.887E+02 1.515E+03 1.518E+03 2.180E+06 28.3127 1.00000 1.332E+00
  5.500E+08 5.500E+08 3.418E+00 5.629E+02 7.855E+02 3.176E+02 1.666E+03 1.669E+03 2.211E+06 28.5033 1.00000 1.332E+00
  6.000E+08 6.000E+08 3.430E+00 6.141E+02 8.569E+02 3.464E+02 1.817E+03 1.821E+03 2.240E+06 28.6773 1.00000 1.332E+00
  7.000E+08 7.000E+08 3.452E+00 7.165E+02 9.997E+02 4.042E+02 2.120E+03 2.124E+03 2.291E+06 28.9856 1.00000 1.332E+00
  8.000E+08 8.000E+08 3.471E+00 8.188E+02 1.143E+03 4.619E+02 2.423E+03 2.427E+03 2.335E+06 29.2527 1.00000 1.332E+00
  9.000E+08 9.000E+08 3.487E+00 9.212E+02 1.285E+03 5.197E+02 2.726E+03 2.730E+03 2.373E+06 29.4883 1.00000 1.332E+00
  1.000E+09 1.000E+09 3.502E+00 1.024E+03 1.428E+03 5.774E+02 3.029E+03 3.033E+03 2.408E+06 29.6990 1.00000 1.332E+00